TITLE	280s - 183nm - n
DATA TYPE	ULTRAVIOLET SPECTRUM
ORIGIN	JASCO
OWNER	
DATE	24/11/13
TIME	18:35:19
SPECTROMETER/DATA SYSTEM	
LOCALE	1040
RESOLUTION	
DELTAX	-0.5
XUNITS	NANOMETERS
YUNITS	ABSORBANCE
FIRSTX	 2500.0000
LASTX	  900.0000
NPOINTS	    3201
FIRSTY	    -2.84036
MAXY	    10.00000
MINY	    -4.40055
XYDATA
2500.0000	-2.84036
2499.5000	-3.86729
2499.0000	10
2498.5000	0.72559
2498.0000	10
2497.5000	0.443018
2497.0000	10
2496.5000	10
2496.0000	10
2495.5000	10
2495.0000	10
2494.5000	10
2494.0000	10
2493.5000	10
2493.0000	10
2492.5000	10
2492.0000	10
2491.5000	10
2491.0000	10
2490.5000	10
2490.0000	0.339275
2489.5000	-0.141094
2489.0000	0.240322
2488.5000	10
2488.0000	10
2487.5000	10
2487.0000	10
2486.5000	10
2486.0000	10
2485.5000	10
2485.0000	10
2484.5000	10
2484.0000	10
2483.5000	10
2483.0000	10
2482.5000	10
2482.0000	10
2481.5000	0.0748354
2481.0000	-0.28337
2480.5000	0.0022812
2480.0000	-0.107356
2479.5000	-0.267916
2479.0000	-0.265216
2478.5000	-0.312413
2478.0000	-0.340144
2477.5000	-0.51142
2477.0000	-0.166688
2476.5000	10
2476.0000	10
2475.5000	10
2475.0000	10
2474.5000	10
2474.0000	10
2473.5000	10
2473.0000	10
2472.5000	10
2472.0000	-3.774
2471.5000	-3.58264
2471.0000	-3.97485
2470.5000	-4.19557
2470.0000	-3.61519
2469.5000	10
2469.0000	10
2468.5000	10
2468.0000	0.673004
2467.5000	10
2467.0000	-0.105875
2466.5000	-0.0164554
2466.0000	0.227191
2465.5000	-0.791641
2465.0000	10
2464.5000	10
2464.0000	10
2463.5000	10
2463.0000	10
2462.5000	10
2462.0000	10
2461.5000	10
2461.0000	0.426636
2460.5000	10
2460.0000	10
2459.5000	10
2459.0000	10
2458.5000	-3.08646
2458.0000	10
2457.5000	10
2457.0000	10
2456.5000	10
2456.0000	10
2455.5000	10
2455.0000	10
2454.5000	10
2454.0000	10
2453.5000	10
2453.0000	10
2452.5000	10
2452.0000	10
2451.5000	10
2451.0000	10
2450.5000	10
2450.0000	10
2449.5000	10
2449.0000	10
2448.5000	10
2448.0000	10
2447.5000	10
2447.0000	0.385826
2446.5000	0.73234
2446.0000	-0.0398678
2445.5000	-0.300279
2445.0000	-3.30445
2444.5000	-3.9208
2444.0000	-4.11237
2443.5000	-4.32275
2443.0000	-4.1691
2442.5000	-4.32496
2442.0000	-1.11554
2441.5000	-4.34433
2441.0000	-0.278918
2440.5000	-0.206843
2440.0000	-0.0626669
2439.5000	10
2439.0000	0.462867
2438.5000	0.761821
2438.0000	10
2437.5000	10
2437.0000	0.337187
2436.5000	10
2436.0000	10
2435.5000	10
2435.0000	10
2434.5000	10
2434.0000	10
2433.5000	10
2433.0000	10
2432.5000	10
2432.0000	10
2431.5000	10
2431.0000	-0.155956
2430.5000	-0.0637474
2430.0000	-0.170488
2429.5000	-0.363811
2429.0000	-0.139078
2428.5000	-0.269446
2428.0000	-0.0467236
2427.5000	-3.17161
2427.0000	-0.177043
2426.5000	-3.40678
2426.0000	10
2425.5000	-3.39844
2425.0000	10
2424.5000	10
2424.0000	-3.54537
2423.5000	10
2423.0000	10
2422.5000	10
2422.0000	10
2421.5000	10
2421.0000	10
2420.5000	10
2420.0000	10
2419.5000	10
2419.0000	10
2418.5000	10
2418.0000	-1.04023
2417.5000	-4.40011
2417.0000	-4.27541
2416.5000	-4.40055
2416.0000	-4.33414
2415.5000	-4.02688
2415.0000	-3.87811
2414.5000	10
2414.0000	10
2413.5000	10
2413.0000	10
2412.5000	10
2412.0000	10
2411.5000	10
2411.0000	10
2410.5000	0.431172
2410.0000	0.682247
2409.5000	0.541709
2409.0000	0.0280769
2408.5000	0.234358
2408.0000	0.840932
2407.5000	10
2407.0000	0.610559
2406.5000	0.369733
2406.0000	0.459916
2405.5000	-0.360192
2405.0000	0.0179307
2404.5000	10
2404.0000	10
2403.5000	10
2403.0000	10
2402.5000	10
2402.0000	10
2401.5000	10
2401.0000	-0.315108
2400.5000	-0.213055
2400.0000	-0.455427
2399.5000	-0.571797
2399.0000	-0.35631
2398.5000	-0.51794
2398.0000	-0.424647
2397.5000	-0.381175
2397.0000	-0.807444
2396.5000	0.0684682
2396.0000	-0.163634
2395.5000	-0.246829
2395.0000	0.0657918
2394.5000	-0.192496
2394.0000	-0.155146
2393.5000	-0.0671232
2393.0000	-0.133936
2392.5000	-0.00949865
2392.0000	-0.301039
2391.5000	-0.482586
2391.0000	-0.375904
2390.5000	-0.334898
2390.0000	-0.263091
2389.5000	-0.324105
2389.0000	-0.183503
2388.5000	-0.0402334
2388.0000	0.0373152
2387.5000	0.0105241
2387.0000	0.952029
2386.5000	10
2386.0000	10
2385.5000	1.21069
2385.0000	10
2384.5000	0.288928
2384.0000	0.12718
2383.5000	-0.0118361
2383.0000	0.124846
2382.5000	0.0239283
2382.0000	0.3334
2381.5000	10
2381.0000	10
2380.5000	10
2380.0000	10
2379.5000	10
2379.0000	0.127682
2378.5000	0.0423754
2378.0000	-0.0846015
2377.5000	-0.0658667
2377.0000	-0.104553
2376.5000	-0.036283
2376.0000	0.132721
2375.5000	0.206398
2375.0000	0.666055
2374.5000	0.12131
2374.0000	0.245448
2373.5000	10
2373.0000	-0.477102
2372.5000	-4.29031
2372.0000	-4.3792
2371.5000	-0.571532
2371.0000	-0.719281
2370.5000	-0.65066
2370.0000	-1.60828
2369.5000	-1.11753
2369.0000	-0.833111
2368.5000	-0.890402
2368.0000	-4.2523
2367.5000	-4.17694
2367.0000	-0.55806
2366.5000	-4.06144
2366.0000	-0.633135
2365.5000	-3.82708
2365.0000	-3.62214
2364.5000	10
2364.0000	10
2363.5000	10
2363.0000	10
2362.5000	10
2362.0000	10
2361.5000	10
2361.0000	10
2360.5000	10
2360.0000	10
2359.5000	10
2359.0000	10
2358.5000	10
2358.0000	-3.12051
2357.5000	-3.63701
2357.0000	-0.792853
2356.5000	-3.29505
2356.0000	-3.34547
2355.5000	-4.05454
2355.0000	-3.6012
2354.5000	10
2354.0000	10
2353.5000	-3.83327
2353.0000	-3.36609
2352.5000	-3.16252
2352.0000	10
2351.5000	10
2351.0000	0.5028
2350.5000	0.645328
2350.0000	10
2349.5000	10
2349.0000	-0.092063
2348.5000	10
2348.0000	10
2347.5000	10
2347.0000	10
2346.5000	10
2346.0000	10
2345.5000	10
2345.0000	10
2344.5000	10
2344.0000	10
2343.5000	10
2343.0000	-0.850528
2342.5000	-3.32998
2342.0000	-3.31707
2341.5000	-0.630753
2341.0000	-0.575323
2340.5000	-0.357059
2340.0000	10
2339.5000	10
2339.0000	-3.37537
2338.5000	10
2338.0000	10
2337.5000	10
2337.0000	0.158394
2336.5000	-0.154339
2336.0000	0.0903447
2335.5000	0.146918
2335.0000	-0.0627753
2334.5000	10
2334.0000	10
2333.5000	10
2333.0000	10
2332.5000	10
2332.0000	10
2331.5000	10
2331.0000	10
2330.5000	10
2330.0000	10
2329.5000	10
2329.0000	10
2328.5000	10
2328.0000	10
2327.5000	-0.191571
2327.0000	10
2326.5000	10
2326.0000	1.38513
2325.5000	10
2325.0000	0.156794
2324.5000	10
2324.0000	0.0912753
2323.5000	-0.0171175
2323.0000	-0.103896
2322.5000	-0.126949
2322.0000	-0.070063
2321.5000	-0.105449
2321.0000	-0.0537873
2320.5000	0.00626044
2320.0000	0.1125
2319.5000	10
2319.0000	0.367508
2318.5000	10
2318.0000	10
2317.5000	10
2317.0000	0.519751
2316.5000	10
2316.0000	10
2315.5000	0.166587
2315.0000	0.131842
2314.5000	0.0228565
2314.0000	0.306829
2313.5000	-0.253023
2313.0000	-0.244663
2312.5000	-0.213335
2312.0000	-0.577822
2311.5000	-3.49491
2311.0000	-3.35431
2310.5000	10
2310.0000	10
2309.5000	10
2309.0000	10
2308.5000	0.926113
2308.0000	-0.198969
2307.5000	-0.0948339
2307.0000	-0.0396722
2306.5000	-0.149669
2306.0000	-0.365119
2305.5000	-0.324091
2305.0000	-0.119802
2304.5000	-0.157739
2304.0000	-0.119889
2303.5000	-0.329485
2303.0000	10
2302.5000	10
2302.0000	10
2301.5000	10
2301.0000	10
2300.5000	10
2300.0000	10
2299.5000	10
2299.0000	10
2298.5000	10
2298.0000	0.245358
2297.5000	-1.02524
2297.0000	0.0336359
2296.5000	0.281304
2296.0000	0.0490474
2295.5000	0.26732
2295.0000	-0.158781
2294.5000	10
2294.0000	-3.29228
2293.5000	-0.478759
2293.0000	-0.274439
2292.5000	-0.337167
2292.0000	-0.349174
2291.5000	0.0861745
2291.0000	-0.0944069
2290.5000	-0.0873341
2290.0000	10
2289.5000	10
2289.0000	10
2288.5000	10
2288.0000	0.102319
2287.5000	0.121628
2287.0000	-0.0778711
2286.5000	-0.0216179
2286.0000	-0.0239481
2285.5000	0.0122459
2285.0000	0.57123
2284.5000	0.300521
2284.0000	0.118666
2283.5000	0.0314242
2283.0000	-0.624771
2282.5000	-4.09539
2282.0000	-0.492322
2281.5000	-0.748586
2281.0000	-1.68474
2280.5000	-0.543616
2280.0000	-0.355828
2279.5000	-0.481289
2279.0000	-0.688266
2278.5000	-0.44478
2278.0000	-0.423483
2277.5000	-0.127922
2277.0000	10
2276.5000	10
2276.0000	10
2275.5000	10
2275.0000	10
2274.5000	10
2274.0000	-0.235187
2273.5000	10
2273.0000	10
2272.5000	0.337702
2272.0000	0.480454
2271.5000	0.103729
2271.0000	0.118939
2270.5000	-0.216643
2270.0000	-0.31054
2269.5000	10
2269.0000	-0.325693
2268.5000	-0.198918
2268.0000	10
2267.5000	10
2267.0000	-0.576788
2266.5000	-1.7701
2266.0000	-0.34508
2265.5000	-0.295689
2265.0000	-1.04794
2264.5000	10
2264.0000	-3.10811
2263.5000	10
2263.0000	10
2262.5000	10
2262.0000	10
2261.5000	0.407014
2261.0000	0.407891
2260.5000	0.0415741
2260.0000	-0.0974836
2259.5000	-0.182416
2259.0000	-0.405986
2258.5000	-0.678939
2258.0000	-4.23837
2257.5000	-4.07334
2257.0000	-3.26032
2256.5000	10
2256.0000	10
2255.5000	10
2255.0000	10
2254.5000	10
2254.0000	10
2253.5000	10
2253.0000	10
2252.5000	-3.84986
2252.0000	-4.17787
2251.5000	-4.10504
2251.0000	-1.50992
2250.5000	-0.54383
2250.0000	-0.183941
2249.5000	-0.0660581
2249.0000	-0.0129656
2248.5000	0.00204575
2248.0000	0.00234637
2247.5000	0.000250674
2247.0000	-0.00940597
2246.5000	-0.0451529
2246.0000	-0.0517183
2245.5000	-0.0265472
2245.0000	-0.00972068
2244.5000	-0.00365816
2244.0000	0.008614
2243.5000	0.0135568
2243.0000	0.000181384
2242.5000	0.0111998
2242.0000	-0.00120423
2241.5000	0.0023043
2241.0000	-0.0172009
2240.5000	-0.0165012
2240.0000	-0.0125977
2239.5000	-0.0303804
2239.0000	-0.0236554
2238.5000	-0.0355674
2238.0000	-0.0268912
2237.5000	-0.0322606
2237.0000	-0.0444355
2236.5000	-0.0278157
2236.0000	-0.0271478
2235.5000	-0.0192155
2235.0000	-0.0163176
2234.5000	-0.0276873
2234.0000	-0.017766
2233.5000	-0.0177572
2233.0000	-0.0173105
2232.5000	-0.0196616
2232.0000	-0.0190983
2231.5000	-0.0231184
2231.0000	-0.0156708
2230.5000	-0.0228334
2230.0000	-0.018452
2229.5000	-0.0150346
2229.0000	-0.0195657
2228.5000	-0.00987684
2228.0000	-0.00809786
2227.5000	-0.00774291
2227.0000	-0.0079712
2226.5000	-0.00995659
2226.0000	-0.0173904
2225.5000	-0.0127836
2225.0000	-0.0181468
2224.5000	-0.0267871
2224.0000	-0.0351362
2223.5000	-0.0316063
2223.0000	-0.0337741
2222.5000	-0.0395138
2222.0000	-0.0415547
2221.5000	-0.0324532
2221.0000	-0.022533
2220.5000	-0.0156267
2220.0000	-0.0165913
2219.5000	-0.00762868
2219.0000	-0.00832476
2218.5000	-0.00772039
2218.0000	-0.0140141
2217.5000	-0.0115237
2217.0000	-0.00569413
2216.5000	-0.00840349
2216.0000	-0.0147405
2215.5000	-0.0189915
2215.0000	-0.0234251
2214.5000	-0.024487
2214.0000	-0.0279918
2213.5000	-0.0256094
2213.0000	-0.0239922
2212.5000	-0.017278
2212.0000	-0.0161556
2211.5000	-0.00872212
2211.0000	-0.00661141
2210.5000	-0.0106703
2210.0000	-0.00498095
2209.5000	-0.00465112
2209.0000	-0.00482412
2208.5000	-0.0101371
2208.0000	-0.0174463
2207.5000	-0.0159937
2207.0000	-0.0152305
2206.5000	-0.0210099
2206.0000	-0.0259003
2205.5000	-0.0234745
2205.0000	-0.0137895
2204.5000	-0.0184478
2204.0000	-0.0156136
2203.5000	-0.0194309
2203.0000	-0.0102535
2202.5000	-0.015968
2202.0000	-0.0183486
2201.5000	-0.016876
2201.0000	-0.0143829
2200.5000	-0.0133153
2200.0000	-0.0133366
2199.5000	-0.0164042
2199.0000	-0.0194486
2198.5000	-0.0146199
2198.0000	-0.0163895
2197.5000	-0.0143611
2197.0000	-0.0347237
2196.5000	-0.0340022
2196.0000	-0.0144914
2195.5000	-0.0207762
2195.0000	-0.0411933
2194.5000	-0.0308999
2194.0000	-0.0306445
2193.5000	-0.0232075
2193.0000	-0.0702671
2192.5000	-0.0409174
2192.0000	-0.0167152
2191.5000	-0.0712194
2191.0000	0.0212909
2190.5000	0.0501268
2190.0000	-0.0228831
2189.5000	-0.0128554
2189.0000	-0.0228218
2188.5000	0.0300684
2188.0000	0.0952142
2187.5000	0.199831
2187.0000	0.123071
2186.5000	0.258367
2186.0000	0.232937
2185.5000	0.538065
2185.0000	10
2184.5000	0.624235
2184.0000	1.14146
2183.5000	0.758138
2183.0000	0.528107
2182.5000	0.315137
2182.0000	0.161589
2181.5000	0.141855
2181.0000	0.14943
2180.5000	0.14361
2180.0000	-0.183669
2179.5000	-0.193108
2179.0000	-0.0607003
2178.5000	-0.347443
2178.0000	-0.24958
2177.5000	-0.267128
2177.0000	-0.130873
2176.5000	-0.150662
2176.0000	-0.805605
2175.5000	-3.57799
2175.0000	-2.2962
2174.5000	10
2174.0000	-0.243381
2173.5000	10
2173.0000	0.119543
2172.5000	0.291647
2172.0000	0.0375285
2171.5000	-0.0178493
2171.0000	-0.163104
2170.5000	-0.0999412
2170.0000	-0.142437
2169.5000	-0.303256
2169.0000	-0.314929
2168.5000	-0.328841
2168.0000	-0.277789
2167.5000	-0.0549322
2167.0000	-0.064508
2166.5000	1.8413
2166.0000	0.306314
2165.5000	-0.0478789
2165.0000	-0.0203001
2164.5000	-0.0910214
2164.0000	0.00455211
2163.5000	0.0116964
2163.0000	-0.196848
2162.5000	-0.0538684
2162.0000	0.0434135
2161.5000	0.21209
2161.0000	0.170435
2160.5000	-0.228338
2160.0000	0.0325346
2159.5000	-0.0828649
2159.0000	0.312155
2158.5000	0.149791
2158.0000	-0.209202
2157.5000	-0.0893022
2157.0000	-0.0811862
2156.5000	-0.135446
2156.0000	-0.226669
2155.5000	-0.536494
2155.0000	-0.395908
2154.5000	-0.661716
2154.0000	-0.487155
2153.5000	-0.815317
2153.0000	-0.618455
2152.5000	-0.107507
2152.0000	-0.209696
2151.5000	-0.182005
2151.0000	-0.451517
2150.5000	-0.0182166
2150.0000	0.150572
2149.5000	0.415645
2149.0000	0.165239
2148.5000	0.160024
2148.0000	0.108991
2147.5000	0.155942
2147.0000	-0.0225096
2146.5000	-0.161257
2146.0000	0.0966864
2145.5000	0.153028
2145.0000	0.0575219
2144.5000	-0.0270261
2144.0000	-0.000528052
2143.5000	-0.0411561
2143.0000	-0.0653723
2142.5000	-0.161613
2142.0000	-0.325092
2141.5000	-0.355196
2141.0000	-0.293395
2140.5000	0.238773
2140.0000	0.196276
2139.5000	0.6842
2139.0000	1.3121
2138.5000	0.0332594
2138.0000	-0.515539
2137.5000	-0.304496
2137.0000	-0.287486
2136.5000	-0.214129
2136.0000	-0.112629
2135.5000	-0.106022
2135.0000	-0.0713213
2134.5000	-0.0805237
2134.0000	-0.0158135
2133.5000	-0.0661809
2133.0000	-0.0965163
2132.5000	-0.0661989
2132.0000	-0.0339067
2131.5000	-0.0299767
2131.0000	-0.0281658
2130.5000	-0.0183922
2130.0000	-0.0142395
2129.5000	-0.00928482
2129.0000	-0.00649621
2128.5000	-0.00387732
2128.0000	-0.00124974
2127.5000	-0.00100366
2127.0000	-0.00101934
2126.5000	-0.0032323
2126.0000	-0.00454391
2125.5000	-0.00679642
2125.0000	-0.00605582
2124.5000	-0.00561447
2124.0000	-0.00514849
2123.5000	-0.00388936
2123.0000	-0.00427087
2122.5000	-0.00287001
2122.0000	-0.00260259
2121.5000	-0.00414674
2121.0000	-0.00347334
2120.5000	-0.00310782
2120.0000	-0.00428531
2119.5000	-0.00405166
2119.0000	-0.00398066
2118.5000	-0.00407644
2118.0000	-0.00320569
2117.5000	-0.00348142
2117.0000	-0.00259634
2116.5000	-0.00230758
2116.0000	-0.00250466
2115.5000	-0.00303893
2115.0000	-0.00267621
2114.5000	-0.00333589
2114.0000	-0.00306084
2113.5000	-0.00376904
2113.0000	-0.00361532
2112.5000	-0.00367619
2112.0000	-0.00366284
2111.5000	-0.00329397
2111.0000	-0.00329592
2110.5000	-0.00260656
2110.0000	-0.00254989
2109.5000	-0.00215864
2109.0000	-0.00188453
2108.5000	-0.00197104
2108.0000	-0.00177207
2107.5000	-0.00195227
2107.0000	-0.00169824
2106.5000	-0.00150464
2106.0000	-0.00146653
2105.5000	-0.0012408
2105.0000	-0.00109468
2104.5000	-0.00108415
2104.0000	-0.000967624
2103.5000	-0.000827125
2103.0000	-0.00106715
2102.5000	-0.000850633
2102.0000	-0.000583204
2101.5000	-0.000632294
2101.0000	-0.000457081
2100.5000	-0.000381074
2100.0000	-0.000328453
2099.5000	-0.000467287
2099.0000	-0.000211164
2098.5000	-0.000166504
2098.0000	0.000165448
2097.5000	8.81663E-005
2097.0000	-5.00423E-005
2096.5000	-0.000136354
2096.0000	-0.000308602
2095.5000	-0.000422234
2095.0000	-0.000436838
2094.5000	-0.000707268
2094.0000	-0.000394236
2093.5000	-0.000370515
2093.0000	-5.47622E-006
2092.5000	0.000298623
2092.0000	0.000554837
2091.5000	0.000752356
2091.0000	0.00106575
2090.5000	0.0011974
2090.0000	0.00122872
2089.5000	0.00128378
2089.0000	0.00120348
2088.5000	0.00144794
2088.0000	0.001543
2087.5000	0.00158835
2087.0000	0.0016259
2086.5000	0.00173464
2086.0000	0.00156788
2085.5000	0.00144914
2085.0000	0.00132126
2084.5000	0.00116882
2084.0000	0.00113015
2083.5000	0.00107977
2083.0000	0.00140016
2082.5000	0.00175666
2082.0000	0.00199904
2081.5000	0.00224702
2081.0000	0.00250194
2080.5000	0.00252802
2080.0000	0.00264875
2079.5000	0.0026148
2079.0000	0.00287148
2078.5000	0.00293845
2078.0000	0.00276756
2077.5000	0.00295182
2077.0000	0.00308714
2076.5000	0.0031463
2076.0000	0.00307903
2075.5000	0.00312197
2075.0000	0.00325201
2074.5000	0.00323059
2074.0000	0.00337868
2073.5000	0.00358904
2073.0000	0.00375069
2072.5000	0.00389264
2072.0000	0.00408801
2071.5000	0.00426462
2071.0000	0.00419908
2070.5000	0.0045019
2070.0000	0.00431694
2069.5000	0.00436649
2069.0000	0.00439987
2068.5000	0.00442927
2068.0000	0.00451894
2067.5000	0.00466092
2067.0000	0.00478965
2066.5000	0.00483012
2066.0000	0.00497366
2065.5000	0.00492152
2065.0000	0.00502763
2064.5000	0.00501158
2064.0000	0.00528582
2063.5000	0.00550192
2063.0000	0.00562157
2062.5000	0.0056477
2062.0000	0.00587437
2061.5000	0.0059172
2061.0000	0.00587436
2060.5000	0.00598648
2060.0000	0.00616124
2059.5000	0.00622211
2059.0000	0.00649678
2058.5000	0.00655592
2058.0000	0.00704917
2057.5000	0.00724303
2057.0000	0.00729397
2056.5000	0.00753285
2056.0000	0.00751699
2055.5000	0.00761459
2055.0000	0.00778865
2054.5000	0.00785372
2054.0000	0.00815845
2053.5000	0.00825065
2053.0000	0.00854988
2052.5000	0.00882021
2052.0000	0.00898374
2051.5000	0.00904776
2051.0000	0.00925016
2050.5000	0.00937563
2050.0000	0.00983135
2049.5000	0.00980071
2049.0000	0.00975718
2048.5000	0.00997248
2048.0000	0.0101569
2047.5000	0.0103585
2047.0000	0.010333
2046.5000	0.0106186
2046.0000	0.0111436
2045.5000	0.0114075
2045.0000	0.0116725
2044.5000	0.0116274
2044.0000	0.0117903
2043.5000	0.01209
2043.0000	0.012128
2042.5000	0.0122927
2042.0000	0.0126192
2041.5000	0.0128649
2041.0000	0.0130944
2040.5000	0.0130802
2040.0000	0.0132295
2039.5000	0.0133393
2039.0000	0.0133563
2038.5000	0.0135399
2038.0000	0.0137125
2037.5000	0.0138009
2037.0000	0.0141003
2036.5000	0.0143105
2036.0000	0.0143909
2035.5000	0.0145545
2035.0000	0.0145146
2034.5000	0.0146986
2034.0000	0.0147136
2033.5000	0.0148966
2033.0000	0.0152406
2032.5000	0.0155338
2032.0000	0.0160385
2031.5000	0.0162718
2031.0000	0.0165236
2030.5000	0.0168811
2030.0000	0.0171413
2029.5000	0.0170409
2029.0000	0.0171503
2028.5000	0.0174162
2028.0000	0.0176059
2027.5000	0.017918
2027.0000	0.0179011
2026.5000	0.0184357
2026.0000	0.0185658
2025.5000	0.0184456
2025.0000	0.0182162
2024.5000	0.018396
2024.0000	0.0182462
2023.5000	0.0183595
2023.0000	0.0183587
2022.5000	0.0186692
2022.0000	0.0191392
2021.5000	0.0193704
2021.0000	0.0199844
2020.5000	0.0200706
2020.0000	0.0204694
2019.5000	0.0206575
2019.0000	0.0206532
2018.5000	0.0209481
2018.0000	0.0214271
2017.5000	0.0214718
2017.0000	0.0216732
2016.5000	0.0218147
2016.0000	0.0221185
2015.5000	0.0221037
2015.0000	0.0219444
2014.5000	0.0220498
2014.0000	0.0220602
2013.5000	0.0222108
2013.0000	0.0226459
2012.5000	0.0226285
2012.0000	0.0227828
2011.5000	0.0230267
2011.0000	0.0232432
2010.5000	0.0236766
2010.0000	0.0239184
2009.5000	0.0243121
2009.0000	0.0245831
2008.5000	0.0245514
2008.0000	0.0247556
2007.5000	0.0248783
2007.0000	0.0250069
2006.5000	0.0250899
2006.0000	0.0248977
2005.5000	0.0249794
2005.0000	0.0251053
2004.5000	0.0254561
2004.0000	0.0254309
2003.5000	0.0254943
2003.0000	0.0257593
2002.5000	0.0260072
2002.0000	0.0261209
2001.5000	0.0260259
2001.0000	0.0262746
2000.5000	0.0262539
2000.0000	0.0262731
1999.5000	0.0263118
1999.0000	0.0263736
1998.5000	0.0265962
1998.0000	0.0266405
1997.5000	0.0266761
1997.0000	0.0266992
1996.5000	0.0268359
1996.0000	0.0269546
1995.5000	0.0270996
1995.0000	0.0272629
1994.5000	0.0272377
1994.0000	0.027398
1993.5000	0.0273045
1993.0000	0.0271377
1992.5000	0.0271074
1992.0000	0.0274112
1991.5000	0.0273323
1991.0000	0.0272957
1990.5000	0.0273172
1990.0000	0.0273898
1989.5000	0.0276055
1989.0000	0.0272673
1988.5000	0.0270539
1988.0000	0.0271035
1987.5000	0.0270853
1987.0000	0.0270833
1986.5000	0.0269467
1986.0000	0.02676
1985.5000	0.0267354
1985.0000	0.0267607
1984.5000	0.0267174
1984.0000	0.0265001
1983.5000	0.0263067
1983.0000	0.0264973
1982.5000	0.0264409
1982.0000	0.026283
1981.5000	0.0262978
1981.0000	0.0263191
1980.5000	0.0263521
1980.0000	0.0262865
1979.5000	0.0261334
1979.0000	0.026012
1978.5000	0.025997
1978.0000	0.0256866
1977.5000	0.0255555
1977.0000	0.0253372
1976.5000	0.0251705
1976.0000	0.025199
1975.5000	0.0251823
1975.0000	0.0249459
1974.5000	0.0248343
1974.0000	0.0248264
1973.5000	0.0246287
1973.0000	0.0244637
1972.5000	0.0243239
1972.0000	0.0242441
1971.5000	0.0242058
1971.0000	0.0241031
1970.5000	0.0238453
1970.0000	0.0239209
1969.5000	0.0235974
1969.0000	0.0233988
1968.5000	0.0232368
1968.0000	0.0229808
1967.5000	0.0228326
1967.0000	0.0228045
1966.5000	0.0225941
1966.0000	0.0222919
1965.5000	0.0219848
1965.0000	0.0217832
1964.5000	0.021532
1964.0000	0.0213319
1963.5000	0.02116
1963.0000	0.0211674
1962.5000	0.0209935
1962.0000	0.0208886
1961.5000	0.0207392
1961.0000	0.0205518
1960.5000	0.0204294
1960.0000	0.0200751
1959.5000	0.0198856
1959.0000	0.0197606
1958.5000	0.0196224
1958.0000	0.019454
1957.5000	0.0192224
1957.0000	0.0191453
1956.5000	0.019177
1956.0000	0.0190702
1955.5000	0.0187129
1955.0000	0.0184867
1954.5000	0.0182836
1954.0000	0.0180364
1953.5000	0.0177446
1953.0000	0.0176289
1952.5000	0.0174854
1952.0000	0.0174219
1951.5000	0.0172458
1951.0000	0.0171577
1950.5000	0.0170201
1950.0000	0.0167936
1949.5000	0.0165435
1949.0000	0.0163249
1948.5000	0.0163605
1948.0000	0.0162132
1947.5000	0.0160803
1947.0000	0.0159889
1946.5000	0.0158134
1946.0000	0.0156195
1945.5000	0.015271
1945.0000	0.0149694
1944.5000	0.0149638
1944.0000	0.0147453
1943.5000	0.0145379
1943.0000	0.0144635
1942.5000	0.0143604
1942.0000	0.0140162
1941.5000	0.0140458
1941.0000	0.0138613
1940.5000	0.0136517
1940.0000	0.0136664
1939.5000	0.0134762
1939.0000	0.0132168
1938.5000	0.0130361
1938.0000	0.0127217
1937.5000	0.0124724
1937.0000	0.0123465
1936.5000	0.0121001
1936.0000	0.0117846
1935.5000	0.0116707
1935.0000	0.0114678
1934.5000	0.0115782
1934.0000	0.0113012
1933.5000	0.0112043
1933.0000	0.0112043
1932.5000	0.010935
1932.0000	0.0108076
1931.5000	0.0107122
1931.0000	0.0105862
1930.5000	0.010332
1930.0000	0.0101539
1929.5000	0.0101404
1929.0000	0.0100835
1928.5000	0.0098745
1928.0000	0.00962518
1927.5000	0.00967422
1927.0000	0.00961791
1926.5000	0.00956702
1926.0000	0.0093795
1925.5000	0.00935055
1925.0000	0.00928941
1924.5000	0.00936675
1924.0000	0.00939703
1923.5000	0.00925169
1923.0000	0.00895686
1922.5000	0.00881325
1922.0000	0.00870221
1921.5000	0.00844156
1921.0000	0.00841003
1920.5000	0.00835061
1920.0000	0.00831142
1919.5000	0.00809266
1919.0000	0.00815951
1918.5000	0.00801364
1918.0000	0.00760369
1917.5000	0.00752205
1917.0000	0.00737247
1916.5000	0.00714621
1916.0000	0.00717606
1915.5000	0.00710575
1915.0000	0.00674424
1914.5000	0.00670798
1914.0000	0.00653896
1913.5000	0.0063912
1913.0000	0.00615263
1912.5000	0.00583409
1912.0000	0.00576333
1911.5000	0.00569318
1911.0000	0.00548728
1910.5000	0.00515969
1910.0000	0.00487417
1909.5000	0.00456357
1909.0000	0.00448044
1908.5000	0.00424026
1908.0000	0.00394508
1907.5000	0.00365392
1907.0000	0.00360333
1906.5000	0.00330101
1906.0000	0.00303219
1905.5000	0.00267178
1905.0000	0.00235691
1904.5000	0.00189804
1904.0000	0.00134233
1903.5000	0.000783057
1903.0000	0.000269866
1902.5000	-5.46418E-005
1902.0000	-0.000372375
1901.5000	-0.000716339
1901.0000	-0.000820705
1900.5000	-0.000709542
1900.0000	-0.000733039
1899.5000	-0.000863468
1899.0000	-0.000828048
1898.5000	-0.000945601
1898.0000	-0.000747981
1897.5000	-0.000798784
1897.0000	-0.000595395
1896.5000	-0.000206246
1896.0000	0.000143343
1895.5000	0.000409089
1895.0000	0.000690677
1894.5000	0.000906917
1894.0000	0.00112211
1893.5000	0.00118996
1893.0000	0.00130505
1892.5000	0.00132326
1892.0000	0.00153434
1891.5000	0.00170345
1891.0000	0.00184705
1890.5000	0.00197828
1890.0000	0.00202759
1889.5000	0.00236621
1889.0000	0.002242
1888.5000	0.00245783
1888.0000	0.00249054
1887.5000	0.00259293
1887.0000	0.00257541
1886.5000	0.00253092
1886.0000	0.00270843
1885.5000	0.00268258
1885.0000	0.00272839
1884.5000	0.00285442
1884.0000	0.0028489
1883.5000	0.00294021
1883.0000	0.0028092
1882.5000	0.00278295
1882.0000	0.00241278
1881.5000	0.00246446
1881.0000	0.00242546
1880.5000	0.0023809
1880.0000	0.0023693
1879.5000	0.0022969
1879.0000	0.00237635
1878.5000	0.00251797
1878.0000	0.00239067
1877.5000	0.00241038
1877.0000	0.0022639
1876.5000	0.0023233
1876.0000	0.00243084
1875.5000	0.00220839
1875.0000	0.00189046
1874.5000	0.00177947
1874.0000	0.00189689
1873.5000	0.00172262
1873.0000	0.0016917
1872.5000	0.00193025
1872.0000	0.00199167
1871.5000	0.00230684
1871.0000	0.00238278
1870.5000	0.00250485
1870.0000	0.00262979
1869.5000	0.00267576
1869.0000	0.00279998
1868.5000	0.00253395
1868.0000	0.00255868
1867.5000	0.00259201
1867.0000	0.0025379
1866.5000	0.00246344
1866.0000	0.00232692
1865.5000	0.00248777
1865.0000	0.00245963
1864.5000	0.00248892
1864.0000	0.00251761
1863.5000	0.00250183
1863.0000	0.0027151
1862.5000	0.00259654
1862.0000	0.00259937
1861.5000	0.00266136
1861.0000	0.00276986
1860.5000	0.00257547
1860.0000	0.00243272
1859.5000	0.00224607
1859.0000	0.00199442
1858.5000	0.00213014
1858.0000	0.00197431
1857.5000	0.00211106
1857.0000	0.00228671
1856.5000	0.00243044
1856.0000	0.00258853
1855.5000	0.00250722
1855.0000	0.00272545
1854.5000	0.00267088
1854.0000	0.00278606
1853.5000	0.0025377
1853.0000	0.00253903
1852.5000	0.00246219
1852.0000	0.00238362
1851.5000	0.00235156
1851.0000	0.00235492
1850.5000	0.00233687
1850.0000	0.00253758
1849.5000	0.00263487
1849.0000	0.00272068
1848.5000	0.00260016
1848.0000	0.00257754
1847.5000	0.00236871
1847.0000	0.00237259
1846.5000	0.00233749
1846.0000	0.00224416
1845.5000	0.0023642
1845.0000	0.00230739
1844.5000	0.00246146
1844.0000	0.00260304
1843.5000	0.00258616
1843.0000	0.00269837
1842.5000	0.0024976
1842.0000	0.00242365
1841.5000	0.00246014
1841.0000	0.0023753
1840.5000	0.00243799
1840.0000	0.00249049
1839.5000	0.00260949
1839.0000	0.00275419
1838.5000	0.00283335
1838.0000	0.00280893
1837.5000	0.00283792
1837.0000	0.00283723
1836.5000	0.0030342
1836.0000	0.00293965
1835.5000	0.00268347
1835.0000	0.00251441
1834.5000	0.00253425
1834.0000	0.00240567
1833.5000	0.00219322
1833.0000	0.00213157
1832.5000	0.00226765
1832.0000	0.0023834
1831.5000	0.00247475
1831.0000	0.00260696
1830.5000	0.00276806
1830.0000	0.00281225
1829.5000	0.00281623
1829.0000	0.0028146
1828.5000	0.0028012
1828.0000	0.0028432
1827.5000	0.00282344
1827.0000	0.00274088
1826.5000	0.00276174
1826.0000	0.00265265
1825.5000	0.0027019
1825.0000	0.00247873
1824.5000	0.00255183
1824.0000	0.00247757
1823.5000	0.00244061
1823.0000	0.00244075
1822.5000	0.00238229
1822.0000	0.00243277
1821.5000	0.00243029
1821.0000	0.00237567
1820.5000	0.00222401
1820.0000	0.00224309
1819.5000	0.00235813
1819.0000	0.00229551
1818.5000	0.00246187
1818.0000	0.00245162
1817.5000	0.00249027
1817.0000	0.00248518
1816.5000	0.00257934
1816.0000	0.00241277
1815.5000	0.0025072
1815.0000	0.00246137
1814.5000	0.00249325
1814.0000	0.00242845
1813.5000	0.00244222
1813.0000	0.00245234
1812.5000	0.00246477
1812.0000	0.00261848
1811.5000	0.00249385
1811.0000	0.00246734
1810.5000	0.00261082
1810.0000	0.00264113
1809.5000	0.00259695
1809.0000	0.00270888
1808.5000	0.0027307
1808.0000	0.0027723
1807.5000	0.00277357
1807.0000	0.00272777
1806.5000	0.00251061
1806.0000	0.00252409
1805.5000	0.00232832
1805.0000	0.00242462
1804.5000	0.00241606
1804.0000	0.00240363
1803.5000	0.00252299
1803.0000	0.00254016
1802.5000	0.00238896
1802.0000	0.00256587
1801.5000	0.00247168
1801.0000	0.00248947
1800.5000	0.00238177
1800.0000	0.00240056
1799.5000	0.00257611
1799.0000	0.00260316
1798.5000	0.0026829
1798.0000	0.00263751
1797.5000	0.00288101
1797.0000	0.00262394
1796.5000	0.0025872
1796.0000	0.00238656
1795.5000	0.00215789
1795.0000	0.0022717
1794.5000	0.0021322
1794.0000	0.00214049
1793.5000	0.00215598
1793.0000	0.00211793
1792.5000	0.00214076
1792.0000	0.00209018
1791.5000	0.00194889
1791.0000	0.00195763
1790.5000	0.00200475
1790.0000	0.00206956
1789.5000	0.00211356
1789.0000	0.00231421
1788.5000	0.00231574
1788.0000	0.00235684
1787.5000	0.00221665
1787.0000	0.00216092
1786.5000	0.00229652
1786.0000	0.00167191
1785.5000	0.00163037
1785.0000	0.00161378
1784.5000	0.00149313
1784.0000	0.0013
1783.5000	0.00127492
1783.0000	0.00153927
1782.5000	0.00152994
1782.0000	0.0013574
1781.5000	0.0011612
1781.0000	0.000923652
1780.5000	0.000596371
1780.0000	0.00086479
1779.5000	0.000778182
1779.0000	0.000733709
1778.5000	0.000770476
1778.0000	0.000895898
1777.5000	0.00119129
1777.0000	0.000873043
1776.5000	0.000512921
1776.0000	-0.000159358
1775.5000	-0.000162741
1775.0000	-0.000360439
1774.5000	-0.00012768
1774.0000	0.000803012
1773.5000	0.000353763
1773.0000	0.000173183
1772.5000	0.00127647
1772.0000	0.000680895
1771.5000	-9.09138E-005
1771.0000	-0.000525875
1770.5000	-0.000699038
1770.0000	-0.000464994
1769.5000	-0.000605636
1769.0000	-0.00178239
1768.5000	-0.00172429
1768.0000	-0.002246
1767.5000	-0.00231275
1767.0000	-0.00202353
1766.5000	-0.00317598
1766.0000	-0.00211601
1765.5000	-0.00164564
1765.0000	-0.00187643
1764.5000	-0.000747379
1764.0000	-0.000604079
1763.5000	0.000111324
1763.0000	0.00044703
1762.5000	0.000361169
1762.0000	0.00109793
1761.5000	0.000454304
1761.0000	0.000167966
1760.5000	-0.000683194
1760.0000	-0.000881473
1759.5000	-0.00105097
1759.0000	-0.0010185
1758.5000	-0.00112883
1758.0000	-0.00148893
1757.5000	-0.000683283
1757.0000	-0.000519543
1756.5000	0.000207464
1756.0000	0.000615285
1755.5000	-6.53012E-005
1755.0000	0.000327269
1754.5000	0.000402576
1754.0000	2.2585E-006
1753.5000	-0.0012766
1753.0000	-0.00178562
1752.5000	-0.00070134
1752.0000	-0.00113249
1751.5000	-0.000225318
1751.0000	-0.000973794
1750.5000	0.000489371
1750.0000	0.000232359
1749.5000	-2.3213E-005
1749.0000	-0.00123106
1748.5000	-0.0010419
1748.0000	-0.00230237
1747.5000	-0.00188182
1747.0000	-0.000847759
1746.5000	0.000645499
1746.0000	-0.00058207
1745.5000	-0.0001094
1745.0000	0.00117478
1744.5000	0.00208442
1744.0000	6.82265E-005
1743.5000	-0.00013925
1743.0000	0.00187286
1742.5000	0.00169688
1742.0000	0.000352763
1741.5000	0.00096397
1741.0000	-0.00043019
1740.5000	-0.000519724
1740.0000	-0.00113354
1739.5000	-0.00228563
1739.0000	-0.00163698
1738.5000	-0.00197221
1738.0000	-0.00120172
1737.5000	-0.00126067
1737.0000	-0.0019768
1736.5000	-0.00122311
1736.0000	-0.001861
1735.5000	-0.00225427
1735.0000	-0.00255454
1734.5000	-0.00237928
1734.0000	-0.00147504
1733.5000	-0.00245648
1733.0000	-0.00247823
1732.5000	-0.00172106
1732.0000	-0.000628417
1731.5000	-0.00143319
1731.0000	-0.00206342
1730.5000	-0.000949588
1730.0000	0.000226551
1729.5000	-6.35563E-005
1729.0000	6.97274E-005
1728.5000	0.00100588
1728.0000	0.00108576
1727.5000	0.00182005
1727.0000	0.00296412
1726.5000	0.00190971
1726.0000	-0.000208094
1725.5000	0.000659256
1725.0000	-0.000568092
1724.5000	-0.00165351
1724.0000	-0.0029298
1723.5000	-0.00250717
1723.0000	-0.00175992
1722.5000	-0.00170952
1722.0000	-0.00168921
1721.5000	-0.000430424
1721.0000	-0.000989632
1720.5000	0.000422529
1720.0000	0.000178761
1719.5000	-0.00106535
1719.0000	-0.00133887
1718.5000	-0.00229419
1718.0000	-0.00165288
1717.5000	-0.00127938
1717.0000	-0.000963894
1716.5000	0.000291568
1716.0000	-0.000178515
1715.5000	0.000191024
1715.0000	2.49688E-005
1714.5000	0.000551287
1714.0000	0.000327379
1713.5000	-0.00205084
1713.0000	-0.00129496
1712.5000	-0.00208489
1712.0000	-0.00263027
1711.5000	-0.00269651
1711.0000	-0.0014342
1710.5000	0.00306751
1710.0000	0.00494404
1709.5000	0.00447189
1709.0000	0.00865953
1708.5000	0.0110886
1708.0000	0.0100567
1707.5000	-0.00192493
1707.0000	-0.00334208
1706.5000	-0.00424122
1706.0000	0.0160899
1705.5000	0.0247934
1705.0000	-0.00143939
1704.5000	0.010214
1704.0000	-0.0016521
1703.5000	0.016456
1703.0000	0.0288664
1702.5000	0.0179445
1702.0000	0.0123377
1701.5000	0.0263985
1701.0000	0.0517669
1700.5000	0.0544503
1700.0000	0.0335338
1699.5000	0.0455706
1699.0000	0.0333528
1698.5000	0.0216584
1698.0000	0.0153642
1697.5000	0.00506937
1697.0000	-0.018708
1696.5000	-0.0398986
1696.0000	-0.0503713
1695.5000	-0.03513
1695.0000	-0.013686
1694.5000	-0.0112957
1694.0000	-0.00565547
1693.5000	0.0144781
1693.0000	0.0197992
1692.5000	0.0114021
1692.0000	0.0379414
1691.5000	0.0201985
1691.0000	-0.0175022
1690.5000	0.00494452
1690.0000	0.00654133
1689.5000	0.04007
1689.0000	-0.000218698
1688.5000	0.0257404
1688.0000	0.0502214
1687.5000	0.0403145
1687.0000	0.0353943
1686.5000	0.0391708
1686.0000	0.0491056
1685.5000	0.0568422
1685.0000	0.0618801
1684.5000	0.0244147
1684.0000	0.0612006
1683.5000	0.0384491
1683.0000	0.0244441
1682.5000	0.0302831
1682.0000	0.02094
1681.5000	0.0436661
1681.0000	0.0478568
1680.5000	0.0393705
1680.0000	0.0251412
1679.5000	0.0124006
1679.0000	0.0262593
1678.5000	0.0327258
1678.0000	0.00759629
1677.5000	-0.00457452
1677.0000	0.0213242
1676.5000	0.0370909
1676.0000	0.0429137
1675.5000	0.0343515
1675.0000	0.00329816
1674.5000	0.0122913
1674.0000	0.000152475
1673.5000	-0.00218968
1673.0000	0.00305301
1672.5000	0.00998882
1672.0000	0.0167458
1671.5000	0.0353687
1671.0000	0.0413294
1670.5000	0.0349296
1670.0000	0.0169745
1669.5000	0.0151774
1669.0000	0.0234818
1668.5000	0.0088898
1668.0000	0.00691228
1667.5000	0.0111009
1667.0000	0.013036
1666.5000	0.0165359
1666.0000	0.0196561
1665.5000	0.0273364
1665.0000	0.0206362
1664.5000	0.0147482
1664.0000	0.0123532
1663.5000	0.0125641
1663.0000	0.0066897
1662.5000	0.000830959
1662.0000	0.00279155
1661.5000	0.00290825
1661.0000	0.00382482
1660.5000	0.00473175
1660.0000	0.0050944
1659.5000	0.0056855
1659.0000	0.00612252
1658.5000	0.00657597
1658.0000	0.0069256
1657.5000	0.0072983
1657.0000	0.00762584
1656.5000	0.00779314
1656.0000	0.00820355
1655.5000	0.00866999
1655.0000	0.00866441
1654.5000	0.00906614
1654.0000	0.00915586
1653.5000	0.00954033
1653.0000	0.00966853
1652.5000	0.00956993
1652.0000	0.00976926
1651.5000	0.00975856
1651.0000	0.0100192
1650.5000	0.00983405
1650.0000	0.00983528
1649.5000	0.0100609
1649.0000	0.0103934
1648.5000	0.0104547
1648.0000	0.0102959
1647.5000	0.0102158
1647.0000	0.0102727
1646.5000	0.0102396
1646.0000	0.00997335
1645.5000	0.0101155
1645.0000	0.00971549
1644.5000	0.00978403
1644.0000	0.00990713
1643.5000	0.00990994
1643.0000	0.0101012
1642.5000	0.0101334
1642.0000	0.0099711
1641.5000	0.00999455
1641.0000	0.00996146
1640.5000	0.0101324
1640.0000	0.0105567
1639.5000	0.010785
1639.0000	0.0111154
1638.5000	0.0113986
1638.0000	0.0115325
1637.5000	0.011526
1637.0000	0.0114221
1636.5000	0.0114966
1636.0000	0.011197
1635.5000	0.0111946
1635.0000	0.0111937
1634.5000	0.0111868
1634.0000	0.0112109
1633.5000	0.0114176
1633.0000	0.0117105
1632.5000	0.0118074
1632.0000	0.0118606
1631.5000	0.012132
1631.0000	0.0121911
1630.5000	0.0122604
1630.0000	0.0124503
1629.5000	0.0125999
1629.0000	0.0125865
1628.5000	0.0127487
1628.0000	0.0128613
1627.5000	0.0130203
1627.0000	0.0131331
1626.5000	0.0132069
1626.0000	0.0133824
1625.5000	0.013654
1625.0000	0.0138192
1624.5000	0.013979
1624.0000	0.0140765
1623.5000	0.0142151
1623.0000	0.0143959
1622.5000	0.0145373
1622.0000	0.0146195
1621.5000	0.0147901
1621.0000	0.0149353
1620.5000	0.0150908
1620.0000	0.0151943
1619.5000	0.0152979
1619.0000	0.015445
1618.5000	0.0155177
1618.0000	0.0155715
1617.5000	0.0156494
1617.0000	0.0157108
1616.5000	0.0157598
1616.0000	0.0157488
1615.5000	0.0158329
1615.0000	0.0158823
1614.5000	0.0159125
1614.0000	0.0160402
1613.5000	0.0160871
1613.0000	0.0161579
1612.5000	0.0162996
1612.0000	0.0163391
1611.5000	0.0164395
1611.0000	0.0164997
1610.5000	0.0165495
1610.0000	0.0166128
1609.5000	0.0166061
1609.0000	0.0166613
1608.5000	0.0166901
1608.0000	0.0166927
1607.5000	0.0167568
1607.0000	0.0167754
1606.5000	0.0168718
1606.0000	0.0169381
1605.5000	0.0170101
1605.0000	0.0170996
1604.5000	0.0171091
1604.0000	0.0171313
1603.5000	0.0171091
1603.0000	0.0171201
1602.5000	0.0171591
1602.0000	0.0171658
1601.5000	0.0172288
1601.0000	0.0172521
1600.5000	0.0173402
1600.0000	0.0173971
1599.5000	0.0174558
1599.0000	0.0174658
1598.5000	0.0174576
1598.0000	0.0175307
1597.5000	0.0175429
1597.0000	0.0175749
1596.5000	0.0175686
1596.0000	0.0176213
1595.5000	0.017687
1595.0000	0.0177104
1594.5000	0.017743
1594.0000	0.0177349
1593.5000	0.0177774
1593.0000	0.0178401
1592.5000	0.0178555
1592.0000	0.0178721
1591.5000	0.0178905
1591.0000	0.0180551
1590.5000	0.0181529
1590.0000	0.0181851
1589.5000	0.018253
1589.0000	0.0183376
1588.5000	0.0184858
1588.0000	0.0185317
1587.5000	0.0185115
1587.0000	0.0185173
1586.5000	0.0184976
1586.0000	0.0184849
1585.5000	0.0184391
1585.0000	0.0183712
1584.5000	0.0184254
1584.0000	0.0184506
1583.5000	0.0185148
1583.0000	0.0186384
1582.5000	0.0186457
1582.0000	0.0186689
1581.5000	0.0186959
1581.0000	0.0187442
1580.5000	0.018753
1580.0000	0.0188011
1579.5000	0.0188323
1579.0000	0.0189054
1578.5000	0.018945
1578.0000	0.0189925
1577.5000	0.0190463
1577.0000	0.0191066
1576.5000	0.0191891
1576.0000	0.0192317
1575.5000	0.0192866
1575.0000	0.019289
1574.5000	0.0193366
1574.0000	0.0193354
1573.5000	0.0193932
1573.0000	0.0194285
1572.5000	0.0195053
1572.0000	0.0195827
1571.5000	0.0196491
1571.0000	0.0197113
1570.5000	0.0197112
1570.0000	0.0197374
1569.5000	0.0197812
1569.0000	0.0198424
1568.5000	0.0198812
1568.0000	0.0199312
1567.5000	0.0200188
1567.0000	0.020064
1566.5000	0.0201363
1566.0000	0.02022
1565.5000	0.0202508
1565.0000	0.0203299
1564.5000	0.0203739
1564.0000	0.0203841
1563.5000	0.0204589
1563.0000	0.0205232
1562.5000	0.0206123
1562.0000	0.0206883
1561.5000	0.0207431
1561.0000	0.0208617
1560.5000	0.0208805
1560.0000	0.020912
1559.5000	0.0209724
1559.0000	0.0210071
1558.5000	0.0210668
1558.0000	0.0211385
1557.5000	0.021194
1557.0000	0.0212868
1556.5000	0.0213584
1556.0000	0.0214478
1555.5000	0.0215282
1555.0000	0.0215562
1554.5000	0.021603
1554.0000	0.0216182
1553.5000	0.0216966
1553.0000	0.0217396
1552.5000	0.0217897
1552.0000	0.0218183
1551.5000	0.0218889
1551.0000	0.0220133
1550.5000	0.0221
1550.0000	0.0221292
1549.5000	0.0222127
1549.0000	0.0222524
1548.5000	0.0223233
1548.0000	0.0223723
1547.5000	0.0224139
1547.0000	0.0224459
1546.5000	0.0225583
1546.0000	0.022624
1545.5000	0.0226734
1545.0000	0.0227394
1544.5000	0.0228517
1544.0000	0.0228946
1543.5000	0.0229596
1543.0000	0.0230141
1542.5000	0.0231002
1542.0000	0.0231861
1541.5000	0.0232036
1541.0000	0.0232654
1540.5000	0.0233208
1540.0000	0.0234042
1539.5000	0.02345
1539.0000	0.0234736
1538.5000	0.0235412
1538.0000	0.0235987
1537.5000	0.0236478
1537.0000	0.0236733
1536.5000	0.0237375
1536.0000	0.0237864
1535.5000	0.0238484
1535.0000	0.0238847
1534.5000	0.0239739
1534.0000	0.024017
1533.5000	0.0240737
1533.0000	0.0241033
1532.5000	0.0241395
1532.0000	0.0241678
1531.5000	0.0242242
1531.0000	0.0242557
1530.5000	0.0243138
1530.0000	0.0243775
1529.5000	0.0244446
1529.0000	0.0244965
1528.5000	0.0245284
1528.0000	0.0245749
1527.5000	0.0245876
1527.0000	0.0246249
1526.5000	0.0246382
1526.0000	0.0246697
1525.5000	0.0247095
1525.0000	0.0247186
1524.5000	0.024771
1524.0000	0.0248137
1523.5000	0.0248061
1523.0000	0.0248256
1522.5000	0.0248383
1522.0000	0.0248602
1521.5000	0.0248829
1521.0000	0.0249126
1520.5000	0.024975
1520.0000	0.0250316
1519.5000	0.0250725
1519.0000	0.0250686
1518.5000	0.0251072
1518.0000	0.0250656
1517.5000	0.0250563
1517.0000	0.0250188
1516.5000	0.024994
1516.0000	0.0250147
1515.5000	0.025011
1515.0000	0.0250081
1514.5000	0.0250432
1514.0000	0.0250482
1513.5000	0.0250978
1513.0000	0.0250685
1512.5000	0.0250787
1512.0000	0.025112
1511.5000	0.0251124
1511.0000	0.02507
1510.5000	0.02508
1510.0000	0.0250628
1509.5000	0.0250728
1509.0000	0.0250352
1508.5000	0.0250033
1508.0000	0.024978
1507.5000	0.0249945
1507.0000	0.0249459
1506.5000	0.0249693
1506.0000	0.0249764
1505.5000	0.0249725
1505.0000	0.0249813
1504.5000	0.0249465
1504.0000	0.0249007
1503.5000	0.0248622
1503.0000	0.0247982
1502.5000	0.0247436
1502.0000	0.0246616
1501.5000	0.0246186
1501.0000	0.0245513
1500.5000	0.0245559
1500.0000	0.0245123
1499.5000	0.0244722
1499.0000	0.0244696
1498.5000	0.0244311
1498.0000	0.0243996
1497.5000	0.0243564
1497.0000	0.0242899
1496.5000	0.0242633
1496.0000	0.0242303
1495.5000	0.024177
1495.0000	0.024179
1494.5000	0.0241213
1494.0000	0.0240829
1493.5000	0.0240611
1493.0000	0.0239773
1492.5000	0.023874
1492.0000	0.0238349
1491.5000	0.0237765
1491.0000	0.023708
1490.5000	0.0236523
1490.0000	0.0235893
1489.5000	0.0235126
1489.0000	0.0234492
1488.5000	0.0233785
1488.0000	0.023328
1487.5000	0.0232852
1487.0000	0.0231787
1486.5000	0.023102
1486.0000	0.0229992
1485.5000	0.0229542
1485.0000	0.0228931
1484.5000	0.0227993
1484.0000	0.0227556
1483.5000	0.0227243
1483.0000	0.0226593
1482.5000	0.0226231
1482.0000	0.022564
1481.5000	0.0224978
1481.0000	0.0224274
1480.5000	0.0223461
1480.0000	0.0223092
1479.5000	0.0222291
1479.0000	0.0221329
1478.5000	0.022071
1478.0000	0.0220445
1477.5000	0.0219712
1477.0000	0.0218964
1476.5000	0.0218198
1476.0000	0.0217576
1475.5000	0.0217233
1475.0000	0.021612
1474.5000	0.0215052
1474.0000	0.0214342
1473.5000	0.021365
1473.0000	0.021278
1472.5000	0.0212125
1472.0000	0.0211241
1471.5000	0.0210496
1471.0000	0.0209749
1470.5000	0.020923
1470.0000	0.0208679
1469.5000	0.0207885
1469.0000	0.0207108
1468.5000	0.0206299
1468.0000	0.0205783
1467.5000	0.0204951
1467.0000	0.0204482
1466.5000	0.0204134
1466.0000	0.0203449
1465.5000	0.0202875
1465.0000	0.0202144
1464.5000	0.0201551
1464.0000	0.0200801
1463.5000	0.0199987
1463.0000	0.0199344
1462.5000	0.0198892
1462.0000	0.0198515
1461.5000	0.0197988
1461.0000	0.0197244
1460.5000	0.0196535
1460.0000	0.0195872
1459.5000	0.019521
1459.0000	0.0194708
1458.5000	0.0193834
1458.0000	0.0193071
1457.5000	0.0192884
1457.0000	0.0191988
1456.5000	0.0191623
1456.0000	0.0190836
1455.5000	0.0190434
1455.0000	0.0189955
1454.5000	0.018923
1454.0000	0.0188068
1453.5000	0.0187399
1453.0000	0.0187288
1452.5000	0.0186469
1452.0000	0.0185488
1451.5000	0.0184767
1451.0000	0.0184397
1450.5000	0.018379
1450.0000	0.0183158
1449.5000	0.0182457
1449.0000	0.0182109
1448.5000	0.0181489
1448.0000	0.018101
1447.5000	0.0181073
1447.0000	0.0180073
1446.5000	0.0179283
1446.0000	0.0178845
1445.5000	0.0178746
1445.0000	0.0177624
1444.5000	0.0176795
1444.0000	0.0175894
1443.5000	0.0176155
1443.0000	0.0175015
1442.5000	0.0173789
1442.0000	0.0173071
1441.5000	0.0172458
1441.0000	0.0172008
1440.5000	0.0171468
1440.0000	0.0170805
1439.5000	0.0170659
1439.0000	0.017029
1438.5000	0.0170189
1438.0000	0.0169853
1437.5000	0.0169222
1437.0000	0.0168973
1436.5000	0.0169126
1436.0000	0.0168675
1435.5000	0.0168088
1435.0000	0.0167965
1434.5000	0.016742
1434.0000	0.0167588
1433.5000	0.0166814
1433.0000	0.0166423
1432.5000	0.0166454
1432.0000	0.0165903
1431.5000	0.016591
1431.0000	0.0165589
1430.5000	0.0165443
1430.0000	0.0165311
1429.5000	0.0165065
1429.0000	0.0165065
1428.5000	0.016465
1428.0000	0.0164916
1427.5000	0.0164393
1427.0000	0.0164324
1426.5000	0.0164418
1426.0000	0.0164294
1425.5000	0.0163987
1425.0000	0.0163817
1424.5000	0.0163446
1424.0000	0.0163245
1423.5000	0.0162777
1423.0000	0.0162382
1422.5000	0.0161812
1422.0000	0.016144
1421.5000	0.0161287
1421.0000	0.0161232
1420.5000	0.0160714
1420.0000	0.0159792
1419.5000	0.0159426
1419.0000	0.015862
1418.5000	0.0157916
1418.0000	0.0157421
1417.5000	0.0156767
1417.0000	0.0156484
1416.5000	0.0156205
1416.0000	0.0155938
1415.5000	0.0155539
1415.0000	0.0154651
1414.5000	0.0153795
1414.0000	0.0153383
1413.5000	0.0153147
1413.0000	0.0152034
1412.5000	0.0151836
1412.0000	0.0151593
1411.5000	0.0151422
1411.0000	0.0150787
1410.5000	0.0149822
1410.0000	0.0148974
1409.5000	0.0147932
1409.0000	0.0147005
1408.5000	0.0146337
1408.0000	0.0145805
1407.5000	0.0146504
1407.0000	0.0146144
1406.5000	0.0146773
1406.0000	0.0146269
1405.5000	0.0145809
1405.0000	0.0145635
1404.5000	0.0145396
1404.0000	0.01458
1403.5000	0.0145857
1403.0000	0.0146744
1402.5000	0.0147371
1402.0000	0.0147767
1401.5000	0.0148364
1401.0000	0.0148546
1400.5000	0.0148825
1400.0000	0.0149289
1399.5000	0.0149283
1399.0000	0.0150152
1398.5000	0.0150465
1398.0000	0.0151626
1397.5000	0.0152178
1397.0000	0.0153092
1396.5000	0.0153439
1396.0000	0.0153572
1395.5000	0.0153762
1395.0000	0.0153842
1394.5000	0.0154013
1394.0000	0.0154743
1393.5000	0.0155125
1393.0000	0.0155689
1392.5000	0.0156259
1392.0000	0.0156731
1391.5000	0.0157383
1391.0000	0.0158041
1390.5000	0.0157722
1390.0000	0.0158095
1389.5000	0.0158752
1389.0000	0.0159218
1388.5000	0.0159901
1388.0000	0.0160239
1387.5000	0.0160862
1387.0000	0.0161581
1386.5000	0.0162141
1386.0000	0.0162596
1385.5000	0.0162756
1385.0000	0.0163299
1384.5000	0.016363
1384.0000	0.0162892
1383.5000	0.016252
1383.0000	0.0162842
1382.5000	0.0162721
1382.0000	0.0162127
1381.5000	0.0161771
1381.0000	0.0162333
1380.5000	0.0162717
1380.0000	0.0162632
1379.5000	0.016349
1379.0000	0.0164731
1378.5000	0.0165545
1378.0000	0.0166243
1377.5000	0.0167254
1377.0000	0.0168395
1376.5000	0.0168688
1376.0000	0.016922
1375.5000	0.0169611
1375.0000	0.0170106
1374.5000	0.0170934
1374.0000	0.0171882
1373.5000	0.0172771
1373.0000	0.0173011
1372.5000	0.017384
1372.0000	0.0174216
1371.5000	0.0175068
1371.0000	0.0175739
1370.5000	0.0176262
1370.0000	0.0177046
1369.5000	0.0177562
1369.0000	0.0178326
1368.5000	0.0178703
1368.0000	0.0178876
1367.5000	0.0179707
1367.0000	0.0180553
1366.5000	0.018098
1366.0000	0.0181563
1365.5000	0.0182359
1365.0000	0.0183674
1364.5000	0.0184147
1364.0000	0.0184444
1363.5000	0.0184865
1363.0000	0.0185253
1362.5000	0.0185622
1362.0000	0.0185976
1361.5000	0.0186286
1361.0000	0.0187159
1360.5000	0.0187965
1360.0000	0.0189224
1359.5000	0.0190688
1359.0000	0.0191735
1358.5000	0.0192977
1358.0000	0.0194066
1357.5000	0.0195417
1357.0000	0.0196304
1356.5000	0.0197029
1356.0000	0.0197939
1355.5000	0.0198689
1355.0000	0.0199859
1354.5000	0.0200717
1354.0000	0.0201433
1353.5000	0.0202538
1353.0000	0.0203387
1352.5000	0.0203978
1352.0000	0.0204798
1351.5000	0.0205789
1351.0000	0.020649
1350.5000	0.0207196
1350.0000	0.0208
1349.5000	0.0208702
1349.0000	0.0209429
1348.5000	0.0210085
1348.0000	0.0210532
1347.5000	0.0211121
1347.0000	0.0211433
1346.5000	0.021199
1346.0000	0.0212848
1345.5000	0.0213173
1345.0000	0.0213591
1344.5000	0.0214331
1344.0000	0.0215403
1343.5000	0.0216084
1343.0000	0.0217023
1342.5000	0.0217794
1342.0000	0.0218424
1341.5000	0.0219247
1341.0000	0.0219721
1340.5000	0.0220393
1340.0000	0.022118
1339.5000	0.022175
1339.0000	0.0221984
1338.5000	0.0222773
1338.0000	0.0223293
1337.5000	0.0224004
1337.0000	0.0224466
1336.5000	0.0225195
1336.0000	0.0225843
1335.5000	0.0226611
1335.0000	0.0227275
1334.5000	0.0227719
1334.0000	0.0228064
1333.5000	0.0228553
1333.0000	0.0229007
1332.5000	0.0229231
1332.0000	0.022965
1331.5000	0.0230303
1331.0000	0.0231056
1330.5000	0.0231716
1330.0000	0.0231969
1329.5000	0.0232586
1329.0000	0.0233146
1328.5000	0.0233757
1328.0000	0.0234189
1327.5000	0.0234423
1327.0000	0.0235017
1326.5000	0.0235602
1326.0000	0.0236173
1325.5000	0.0236438
1325.0000	0.0237035
1324.5000	0.0237635
1324.0000	0.0237835
1323.5000	0.0237827
1323.0000	0.0237924
1322.5000	0.0238186
1322.0000	0.0238451
1321.5000	0.0238985
1321.0000	0.0239422
1320.5000	0.0240122
1320.0000	0.0240742
1319.5000	0.0241581
1319.0000	0.0241885
1318.5000	0.0241954
1318.0000	0.0242424
1317.5000	0.0242829
1317.0000	0.0243184
1316.5000	0.0243138
1316.0000	0.0243737
1315.5000	0.0244043
1315.0000	0.0244438
1314.5000	0.0244633
1314.0000	0.0244654
1313.5000	0.0244956
1313.0000	0.0245111
1312.5000	0.0245319
1312.0000	0.0245545
1311.5000	0.0245793
1311.0000	0.0246341
1310.5000	0.0246042
1310.0000	0.024622
1309.5000	0.0246147
1309.0000	0.0245908
1308.5000	0.024609
1308.0000	0.024616
1307.5000	0.0246423
1307.0000	0.0246554
1306.5000	0.0246739
1306.0000	0.0246998
1305.5000	0.0247038
1305.0000	0.0247227
1304.5000	0.0246424
1304.0000	0.0244826
1303.5000	0.0242719
1303.0000	0.0240498
1302.5000	0.0237983
1302.0000	0.0234484
1301.5000	0.0230919
1301.0000	0.0227352
1300.5000	0.022394
1300.0000	0.0220194
1299.5000	0.0216402
1299.0000	0.0212839
1298.5000	0.0209684
1298.0000	0.0207226
1297.5000	0.0205255
1297.0000	0.0203919
1296.5000	0.0203139
1296.0000	0.0202686
1295.5000	0.0202767
1295.0000	0.0202979
1294.5000	0.0203403
1294.0000	0.0203869
1293.5000	0.0204207
1293.0000	0.0204814
1292.5000	0.0205015
1292.0000	0.0205277
1291.5000	0.0205424
1291.0000	0.0205573
1290.5000	0.0205954
1290.0000	0.0206175
1289.5000	0.0206378
1289.0000	0.0206655
1288.5000	0.0206957
1288.0000	0.0207161
1287.5000	0.0206916
1287.0000	0.0207115
1286.5000	0.0206891
1286.0000	0.0206953
1285.5000	0.0206964
1285.0000	0.0207004
1284.5000	0.0207395
1284.0000	0.0207529
1283.5000	0.0207623
1283.0000	0.0207674
1282.5000	0.0207577
1282.0000	0.0207477
1281.5000	0.0207255
1281.0000	0.0207141
1280.5000	0.0207046
1280.0000	0.020677
1279.5000	0.0206558
1279.0000	0.020624
1278.5000	0.0205883
1278.0000	0.0205622
1277.5000	0.0205187
1277.0000	0.0204917
1276.5000	0.0204623
1276.0000	0.020427
1275.5000	0.0203965
1275.0000	0.0203417
1274.5000	0.0203288
1274.0000	0.0203003
1273.5000	0.02023
1273.0000	0.0201955
1272.5000	0.0201692
1272.0000	0.0201259
1271.5000	0.0200814
1271.0000	0.0200236
1270.5000	0.0199928
1270.0000	0.0199414
1269.5000	0.019889
1269.0000	0.0198494
1268.5000	0.0197775
1268.0000	0.0197323
1267.5000	0.0196784
1267.0000	0.0196331
1266.5000	0.0195567
1266.0000	0.0195072
1265.5000	0.0194682
1265.0000	0.0194166
1264.5000	0.0193682
1264.0000	0.0193204
1263.5000	0.0192821
1263.0000	0.0192482
1262.5000	0.0191961
1262.0000	0.0191677
1261.5000	0.019117
1261.0000	0.0190775
1260.5000	0.0190471
1260.0000	0.018989
1259.5000	0.0189664
1259.0000	0.0189359
1258.5000	0.0188881
1258.0000	0.0188829
1257.5000	0.0188274
1257.0000	0.0188128
1256.5000	0.0187949
1256.0000	0.0187663
1255.5000	0.0187392
1255.0000	0.0187221
1254.5000	0.0187125
1254.0000	0.0186893
1253.5000	0.0186717
1253.0000	0.0186701
1252.5000	0.0186714
1252.0000	0.0186842
1251.5000	0.0186817
1251.0000	0.0186796
1250.5000	0.0187037
1250.0000	0.018725
1249.5000	0.0187458
1249.0000	0.0187462
1248.5000	0.0187671
1248.0000	0.018798
1247.5000	0.0188297
1247.0000	0.0188501
1246.5000	0.0188557
1246.0000	0.0188931
1245.5000	0.0189365
1245.0000	0.0189684
1244.5000	0.0190036
1244.0000	0.0190441
1243.5000	0.0190976
1243.0000	0.0191443
1242.5000	0.0191633
1242.0000	0.0191951
1241.5000	0.0192281
1241.0000	0.0192596
1240.5000	0.019283
1240.0000	0.0192997
1239.5000	0.0193302
1239.0000	0.0193667
1238.5000	0.0194029
1238.0000	0.0194149
1237.5000	0.0194479
1237.0000	0.0194694
1236.5000	0.0194967
1236.0000	0.0195135
1235.5000	0.0195348
1235.0000	0.019571
1234.5000	0.0195971
1234.0000	0.0196093
1233.5000	0.0196256
1233.0000	0.019657
1232.5000	0.019669
1232.0000	0.0196926
1231.5000	0.0196999
1231.0000	0.0197363
1230.5000	0.0197687
1230.0000	0.0197982
1229.5000	0.0198104
1229.0000	0.0198552
1228.5000	0.0198634
1228.0000	0.019876
1227.5000	0.0198944
1227.0000	0.0198762
1226.5000	0.0198834
1226.0000	0.0198805
1225.5000	0.0198987
1225.0000	0.019899
1224.5000	0.0198918
1224.0000	0.0199002
1223.5000	0.0198757
1223.0000	0.0198799
1222.5000	0.019887
1222.0000	0.01991
1221.5000	0.0199237
1221.0000	0.0199112
1220.5000	0.0199375
1220.0000	0.0199354
1219.5000	0.0199392
1219.0000	0.0199205
1218.5000	0.0199074
1218.0000	0.0199141
1217.5000	0.0199161
1217.0000	0.0199202
1216.5000	0.0199115
1216.0000	0.0199217
1215.5000	0.0199259
1215.0000	0.0199288
1214.5000	0.0199333
1214.0000	0.0199501
1213.5000	0.0199507
1213.0000	0.0199683
1212.5000	0.0199935
1212.0000	0.0200195
1211.5000	0.0200356
1211.0000	0.0200525
1210.5000	0.020081
1210.0000	0.0201239
1209.5000	0.0201169
1209.0000	0.02012
1208.5000	0.0201466
1208.0000	0.020167
1207.5000	0.0201951
1207.0000	0.0202157
1206.5000	0.0202531
1206.0000	0.0203068
1205.5000	0.0203304
1205.0000	0.0203617
1204.5000	0.0204564
1204.0000	0.0204822
1203.5000	0.0205534
1203.0000	0.0205778
1202.5000	0.0195901
1202.0000	0.0195768
1201.5000	0.0204289
1201.0000	0.0212076
1200.5000	0.0215175
1200.0000	0.021528
1199.5000	0.0228938
1199.0000	0.0229652
1198.5000	0.0223138
1198.0000	0.0215666
1197.5000	0.0209484
1197.0000	0.0209912
1196.5000	0.0210493
1196.0000	0.0210957
1195.5000	0.0211503
1195.0000	0.0211965
1194.5000	0.0212358
1194.0000	0.0212864
1193.5000	0.0213233
1193.0000	0.0213731
1192.5000	0.0214022
1192.0000	0.0215013
1191.5000	0.0218355
1191.0000	0.0224754
1190.5000	0.0233378
1190.0000	0.0241701
1189.5000	0.0250278
1189.0000	0.0258757
1188.5000	0.0266259
1188.0000	0.0270619
1187.5000	0.0271697
1187.0000	0.0272815
1186.5000	0.0274006
1186.0000	0.0274851
1185.5000	0.0275592
1185.0000	0.0276459
1184.5000	0.0277787
1184.0000	0.0278971
1183.5000	0.0280102
1183.0000	0.0280932
1182.5000	0.0282016
1182.0000	0.0282737
1181.5000	0.0283815
1181.0000	0.0284293
1180.5000	0.0284952
1180.0000	0.0285644
1179.5000	0.0286493
1179.0000	0.0287472
1178.5000	0.028793
1178.0000	0.0288514
1177.5000	0.0289254
1177.0000	0.0290009
1176.5000	0.0291202
1176.0000	0.0291981
1175.5000	0.0292938
1175.0000	0.0294055
1174.5000	0.0295245
1174.0000	0.0296421
1173.5000	0.0297098
1173.0000	0.0298039
1172.5000	0.0299031
1172.0000	0.0299578
1171.5000	0.0300244
1171.0000	0.030053
1170.5000	0.0301117
1170.0000	0.0301283
1169.5000	0.0301453
1169.0000	0.0301763
1168.5000	0.0302223
1168.0000	0.030278
1167.5000	0.0303056
1167.0000	0.0303402
1166.5000	0.0304078
1166.0000	0.0304829
1165.5000	0.0305257
1165.0000	0.0306083
1164.5000	0.0306424
1164.0000	0.0307324
1163.5000	0.0307613
1163.0000	0.0307918
1162.5000	0.0308336
1162.0000	0.0308896
1161.5000	0.0309094
1161.0000	0.0309486
1160.5000	0.0309708
1160.0000	0.0310188
1159.5000	0.0310743
1159.0000	0.031053
1158.5000	0.0310348
1158.0000	0.0310104
1157.5000	0.0309561
1157.0000	0.0308866
1156.5000	0.0308212
1156.0000	0.0307308
1155.5000	0.0306455
1155.0000	0.0305624
1154.5000	0.0304945
1154.0000	0.0304429
1153.5000	0.030394
1153.0000	0.0302916
1152.5000	0.0302327
1152.0000	0.0301923
1151.5000	0.03013
1151.0000	0.0300389
1150.5000	0.0299321
1150.0000	0.0298465
1149.5000	0.0298311
1149.0000	0.0298315
1148.5000	0.0298112
1148.0000	0.0298002
1147.5000	0.0297612
1147.0000	0.0299099
1146.5000	0.0299545
1146.0000	0.0299067
1145.5000	0.0299209
1145.0000	0.0299236
1144.5000	0.0299265
1144.0000	0.0299763
1143.5000	0.0299032
1143.0000	0.0299563
1142.5000	0.0299719
1142.0000	0.0301072
1141.5000	0.0301314
1141.0000	0.0302097
1140.5000	0.0302968
1140.0000	0.0304565
1139.5000	0.0305673
1139.0000	0.0306315
1138.5000	0.0308173
1138.0000	0.0310208
1137.5000	0.0311907
1137.0000	0.0313141
1136.5000	0.0314966
1136.0000	0.0317161
1135.5000	0.0318944
1135.0000	0.0320756
1134.5000	0.0321947
1134.0000	0.032335
1133.5000	0.0325549
1133.0000	0.0326746
1132.5000	0.032798
1132.0000	0.0329416
1131.5000	0.0330599
1131.0000	0.0331785
1130.5000	0.0332918
1130.0000	0.0333883
1129.5000	0.0334481
1129.0000	0.0335836
1128.5000	0.0336385
1128.0000	0.0337351
1127.5000	0.0337891
1127.0000	0.0338577
1126.5000	0.0339409
1126.0000	0.0340019
1125.5000	0.0340562
1125.0000	0.0341412
1124.5000	0.0341802
1124.0000	0.0342549
1123.5000	0.034305
1123.0000	0.034358
1122.5000	0.0344264
1122.0000	0.0344806
1121.5000	0.034532
1121.0000	0.0345459
1120.5000	0.0345674
1120.0000	0.0346321
1119.5000	0.0346462
1119.0000	0.0346729
1118.5000	0.0347242
1118.0000	0.0347685
1117.5000	0.0348177
1117.0000	0.034846
1116.5000	0.0348543
1116.0000	0.0349162
1115.5000	0.034921
1115.0000	0.0349449
1114.5000	0.034952
1114.0000	0.0350059
1113.5000	0.0350479
1113.0000	0.0350499
1112.5000	0.0350667
1112.0000	0.035103
1111.5000	0.0351418
1111.0000	0.0351601
1110.5000	0.0351795
1110.0000	0.0351809
1109.5000	0.0352016
1109.0000	0.0352017
1108.5000	0.0352337
1108.0000	0.0352383
1107.5000	0.035261
1107.0000	0.0352911
1106.5000	0.0353103
1106.0000	0.0353033
1105.5000	0.0353168
1105.0000	0.0353267
1104.5000	0.0352919
1104.0000	0.0353207
1103.5000	0.0353231
1103.0000	0.035365
1102.5000	0.0353456
1102.0000	0.035363
1101.5000	0.0353915
1101.0000	0.0354563
1100.5000	0.0354187
1100.0000	0.0354453
1099.5000	0.0354651
1099.0000	0.0354457
1098.5000	0.0354276
1098.0000	0.0354474
1097.5000	0.0354769
1097.0000	0.0355128
1096.5000	0.0355138
1096.0000	0.035543
1095.5000	0.0355801
1095.0000	0.0356007
1094.5000	0.0355722
1094.0000	0.0355652
1093.5000	0.035599
1093.0000	0.0355871
1092.5000	0.0355946
1092.0000	0.0355876
1091.5000	0.0355903
1091.0000	0.0356043
1090.5000	0.0356351
1090.0000	0.0356559
1089.5000	0.0356589
1089.0000	0.0356447
1088.5000	0.0356572
1088.0000	0.0356561
1087.5000	0.035642
1087.0000	0.0356149
1086.5000	0.0356325
1086.0000	0.035647
1085.5000	0.0356584
1085.0000	0.0356944
1084.5000	0.0357554
1084.0000	0.035778
1083.5000	0.0358008
1083.0000	0.0358461
1082.5000	0.0358332
1082.0000	0.0358439
1081.5000	0.0358406
1081.0000	0.0357973
1080.5000	0.0358084
1080.0000	0.0358108
1079.5000	0.0358402
1079.0000	0.0358321
1078.5000	0.035836
1078.0000	0.0358942
1077.5000	0.0359222
1077.0000	0.0359131
1076.5000	0.0358979
1076.0000	0.0359123
1075.5000	0.0359077
1075.0000	0.035942
1074.5000	0.0359462
1074.0000	0.035982
1073.5000	0.0360158
1073.0000	0.0359954
1072.5000	0.0360456
1072.0000	0.0360089
1071.5000	0.0359948
1071.0000	0.0360231
1070.5000	0.0360682
1070.0000	0.036081
1069.5000	0.0360988
1069.0000	0.0360969
1068.5000	0.0361373
1068.0000	0.036147
1067.5000	0.0361649
1067.0000	0.0361408
1066.5000	0.036117
1066.0000	0.036141
1065.5000	0.0361687
1065.0000	0.0362032
1064.5000	0.0362265
1064.0000	0.0362734
1063.5000	0.0363105
1063.0000	0.0363447
1062.5000	0.036341
1062.0000	0.0363157
1061.5000	0.0363128
1061.0000	0.0363315
1060.5000	0.0363351
1060.0000	0.0363535
1059.5000	0.0363535
1059.0000	0.0364061
1058.5000	0.036458
1058.0000	0.0365081
1057.5000	0.0365176
1057.0000	0.0364897
1056.5000	0.036517
1056.0000	0.0365129
1055.5000	0.0364741
1055.0000	0.0364872
1054.5000	0.0365257
1054.0000	0.0365987
1053.5000	0.0366293
1053.0000	0.0366628
1052.5000	0.0367043
1052.0000	0.0367207
1051.5000	0.0367327
1051.0000	0.036736
1050.5000	0.036749
1050.0000	0.0367861
1049.5000	0.0367972
1049.0000	0.0368178
1048.5000	0.0368321
1048.0000	0.0368694
1047.5000	0.0369029
1047.0000	0.0369471
1046.5000	0.0369837
1046.0000	0.0369787
1045.5000	0.0370372
1045.0000	0.0370363
1044.5000	0.0370659
1044.0000	0.0370964
1043.5000	0.0371503
1043.0000	0.0371501
1042.5000	0.0371569
1042.0000	0.0372101
1041.5000	0.0371953
1041.0000	0.0371886
1040.5000	0.0372011
1040.0000	0.0372535
1039.5000	0.0373036
1039.0000	0.037319
1038.5000	0.0373353
1038.0000	0.0373828
1037.5000	0.0374284
1037.0000	0.0374735
1036.5000	0.037504
1036.0000	0.0374929
1035.5000	0.0375689
1035.0000	0.0375935
1034.5000	0.0375905
1034.0000	0.0375902
1033.5000	0.0376284
1033.0000	0.0376931
1032.5000	0.0377069
1032.0000	0.037718
1031.5000	0.0377263
1031.0000	0.0377666
1030.5000	0.0378211
1030.0000	0.0378126
1029.5000	0.0378864
1029.0000	0.0379575
1028.5000	0.038006
1028.0000	0.0380128
1027.5000	0.0380048
1027.0000	0.0380436
1026.5000	0.0380639
1026.0000	0.0380823
1025.5000	0.0381032
1025.0000	0.0381764
1024.5000	0.0382157
1024.0000	0.0382536
1023.5000	0.0382695
1023.0000	0.0382998
1022.5000	0.0383235
1022.0000	0.0383993
1021.5000	0.0384804
1021.0000	0.0385358
1020.5000	0.0385811
1020.0000	0.0386413
1019.5000	0.0387394
1019.0000	0.0387488
1018.5000	0.0387925
1018.0000	0.03881
1017.5000	0.0388438
1017.0000	0.0388876
1016.5000	0.0389574
1016.0000	0.0389905
1015.5000	0.0390431
1015.0000	0.0391006
1014.5000	0.0392139
1014.0000	0.0392345
1013.5000	0.0392621
1013.0000	0.0392918
1012.5000	0.0393473
1012.0000	0.0393762
1011.5000	0.0394092
1011.0000	0.039466
1010.5000	0.0394993
1010.0000	0.0395722
1009.5000	0.0396379
1009.0000	0.0396563
1008.5000	0.0397116
1008.0000	0.0397343
1007.5000	0.039845
1007.0000	0.0399353
1006.5000	0.0399668
1006.0000	0.0400334
1005.5000	0.0401252
1005.0000	0.0401628
1004.5000	0.0402279
1004.0000	0.0402776
1003.5000	0.0403779
1003.0000	0.0404482
1002.5000	0.0404896
1002.0000	0.0405244
1001.5000	0.0405991
1001.0000	0.0406567
1000.5000	0.0406662
1000.0000	0.04069
999.5000	0.0407605
999.0000	0.0408164
998.5000	0.0409057
998.0000	0.0409512
997.5000	0.0410362
997.0000	0.0410977
996.5000	0.0411842
996.0000	0.0412608
995.5000	0.0412976
995.0000	0.0413783
994.5000	0.041463
994.0000	0.0415874
993.5000	0.0416426
993.0000	0.0417301
992.5000	0.0418381
992.0000	0.0419053
991.5000	0.0419787
991.0000	0.041999
990.5000	0.0420711
990.0000	0.0421024
989.5000	0.0421566
989.0000	0.0422552
988.5000	0.0423065
988.0000	0.0423215
987.5000	0.0423952
987.0000	0.0424586
986.5000	0.0425031
986.0000	0.0425844
985.5000	0.042665
985.0000	0.0427557
984.5000	0.042811
984.0000	0.0429201
983.5000	0.0429568
983.0000	0.0430185
982.5000	0.0430659
982.0000	0.0431323
981.5000	0.0432423
981.0000	0.0432983
980.5000	0.0434069
980.0000	0.0435161
979.5000	0.0435487
979.0000	0.0435885
978.5000	0.0436686
978.0000	0.043724
977.5000	0.0437467
977.0000	0.0438699
976.5000	0.0438871
976.0000	0.0439807
975.5000	0.0440765
975.0000	0.044146
974.5000	0.0442301
974.0000	0.0442286
973.5000	0.0443111
973.0000	0.0443673
972.5000	0.0443998
972.0000	0.0444885
971.5000	0.044508
971.0000	0.0445984
970.5000	0.0446919
970.0000	0.0447874
969.5000	0.044827
969.0000	0.0448955
968.5000	0.0449743
968.0000	0.0450284
967.5000	0.0451325
967.0000	0.0452399
966.5000	0.0453386
966.0000	0.0454594
965.5000	0.0454968
965.0000	0.045586
964.5000	0.0456378
964.0000	0.0457134
963.5000	0.0458179
963.0000	0.0458155
962.5000	0.0458663
962.0000	0.0459682
961.5000	0.0460451
961.0000	0.0460955
960.5000	0.0460997
960.0000	0.0461694
959.5000	0.0463313
959.0000	0.0464278
958.5000	0.046485
958.0000	0.0465428
957.5000	0.0467
957.0000	0.046713
956.5000	0.0467697
956.0000	0.0468125
955.5000	0.0469181
955.0000	0.0469714
954.5000	0.047052
954.0000	0.0472169
953.5000	0.047274
953.0000	0.0472415
952.5000	0.0473615
952.0000	0.0474752
951.5000	0.0475408
951.0000	0.0475884
950.5000	0.047688
950.0000	0.0478533
949.5000	0.0479736
949.0000	0.0479422
948.5000	0.0480403
948.0000	0.0481406
947.5000	0.0482007
947.0000	0.0482576
946.5000	0.0482626
946.0000	0.048378
945.5000	0.0484633
945.0000	0.0485734
944.5000	0.0487098
944.0000	0.0488103
943.5000	0.0489458
943.0000	0.0490331
942.5000	0.0491263
942.0000	0.0491261
941.5000	0.0491368
941.0000	0.0491286
940.5000	0.0491964
940.0000	0.0492593
939.5000	0.0493427
939.0000	0.049417
938.5000	0.0495028
938.0000	0.0495843
937.5000	0.0495732
937.0000	0.049721
936.5000	0.0498344
936.0000	0.0499344
935.5000	0.0500116
935.0000	0.0500989
934.5000	0.0502651
934.0000	0.0503075
933.5000	0.050362
933.0000	0.0504224
932.5000	0.0505524
932.0000	0.0506249
931.5000	0.0507058
931.0000	0.050795
930.5000	0.0508337
930.0000	0.0508931
929.5000	0.0509209
929.0000	0.0509481
928.5000	0.0510224
928.0000	0.0511202
927.5000	0.0512
927.0000	0.0512938
926.5000	0.0513849
926.0000	0.0514379
925.5000	0.0516291
925.0000	0.0516892
924.5000	0.0517417
924.0000	0.0518925
923.5000	0.0518812
923.0000	0.0520175
922.5000	0.0520507
922.0000	0.0521781
921.5000	0.0521966
921.0000	0.0523428
920.5000	0.0524054
920.0000	0.0525038
919.5000	0.0525059
919.0000	0.0525596
918.5000	0.0526776
918.0000	0.0527517
917.5000	0.0527877
917.0000	0.0528581
916.5000	0.0530775
916.0000	0.0531759
915.5000	0.0531691
915.0000	0.0532175
914.5000	0.0533029
914.0000	0.0533813
913.5000	0.0533771
913.0000	0.0533389
912.5000	0.0534664
912.0000	0.0536947
911.5000	0.0536412
911.0000	0.0538643
910.5000	0.0538767
910.0000	0.0540883
909.5000	0.0542128
909.0000	0.0542475
908.5000	0.0545007
908.0000	0.0546513
907.5000	0.0546775
907.0000	0.0546606
906.5000	0.0547171
906.0000	0.0548098
905.5000	0.054831
905.0000	0.0547794
904.5000	0.054674
904.0000	0.0548787
903.5000	0.0550307
903.0000	0.0551167
902.5000	0.0552141
902.0000	0.0552655
901.5000	0.055485
901.0000	0.055524
900.5000	0.0555746
900.0000	0.0556778

##### Extended Information
[Comments]
Sample name	280s - 183nm - n
Comment
User
Division
Company	Uni Bicocca

[Detailed Information]
Creation date	13/11/2024 18:35

Data array type	Linear data array
Horizontal axis	Wavelength [nm]
Vertical axis	Abs
Start	2500 nm
End	900 nm
Data interval	0.5 nm
Data points	3201    

[Measurement Information]
Instrument name	V-770
Model name	V-770
Serial No.	D084061801

Accessory	FLH-740
Accessory S/N	B055061127
  Ref. beam	 

Measurement date	13/11/2024 18:25

Photometric mode	Abs
Measurement range	2500 - 900 nm
Data interval	0.5 nm
UV/Vis bandwidth	2.0 nm
NIR bandwidth	2.0 nm
UV/Vis response	0.96 sec
NIR response	0.96 sec
Scan mode	Continuous
Scan speed	200 nm/min
Change source at	340 nm
Change grating at	850 nm
Light source	D2/WI
Filter exchange	Continuous
Correction	Baseline
No. of accumulations	1

